TDBC_NaOH_c3_abs,,
Wavelength (nm),Abs,
1200,-5.259710088E-5,
1199,-7.920384087E-5,
1198,-0.0001563231053,
1197,4.338705185E-5,
1196,-1.061311741E-5,
1195,-4.64369441E-5,
1194,-4.798993541E-5,
1193,-4.633341086E-5,
1192,-0.0001599458337,
1191,-6.781594129E-5,
1190,-0.0001299798751,
1189,-0.0002000524546,
1188,-0.0002536601678,
1187,-0.0001872187422,
1186,-0.0001968440629,
1185,-0.0002055377117,
1184,-0.0001147632211,
1183,-0.0002186813654,
1182,-0.0001464381203,
1181,-0.0001303939353,
1180,-0.0001364493946,
1179,-0.0002512800565,
1178,-0.0001672946673,
1177,-0.0002513835207,
1176,-0.0002079180849,
1175,-0.0001072064479,
1174,-7.878973702E-5,
1173,-0.000234360079,
1172,-9.659569332E-5,
1171,-0.0002005181886,
1170,-0.0001720558357,
1169,-0.0001528556313,
1168,-0.0001800772297,
1167,-0.0003604936646,
1166,-0.0002758567862,
1165,-0.0002410350135,
1164,-0.0002076076053,
1163,-0.0001775932033,
1162,-6.921356544E-5,
1161,-0.0002998630516,
1160,-0.0001616019144,
1159,-0.0002506591263,
1158,-0.0002099879785,
1157,-0.0002076593519,
1156,-2.712764763E-5,
1155,-0.0001200942861,
1154,-4.990528032E-5,
1153,-0.0002728559193,
1152,-2.950900125E-5,
1151,-4.783463373E-5,
1150,2.15635464E-5,
1149,1.144174894E-5,
1148,3.380839189E-5,
1147,6.241555093E-5,
1146,-2.588589041E-6,
1145,3.984033174E-5,
1144,0.0001429140539,
1143,0.0002973762457,
1142,0.0003257935459,
1141,0.0004622846027,
1140,0.0005608968204,
1139,0.0006564981304,
1138,0.0005487925955,
1137,0.0006001665024,
1136,0.0004605743161,
1135,0.0007544024847,
1134,0.0007552063325,
1133,0.0009330777102,
1132,0.000999493408,
1131,0.001076299231,
1130,0.0009063586476,
1129,0.001018304378,
1128,0.0009890374495,
1127,0.001091713901,
1126,0.0008871893515,
1125,0.001208016416,
1124,0.001144008478,
1123,0.001095943968,
1122,0.001126853167,
1121,0.001253756927,
1120,0.001163889887,
1119,0.001298567629,
1118,0.001229484333,
1117,0.001245475491,
1116,0.001321675722,
1115,0.001345486147,
1114,0.00134631712,
1113,0.001349952421,
1112,0.001326609054,
1111,0.001208743197,
1110,0.001357586589,
1109,0.001333360095,
1108,0.001079023932,
1107,0.001230340917,
1106,0.001398928114,
1105,0.00129179121,
1104,0.001323415432,
1103,0.001397421816,
1102,0.001167705399,
1101,0.001290441141,
1100,0.00143902679,
1099,0.001283924445,
1098,0.001295452006,
1097,0.00132372696,
1096,0.001312925713,
1095,0.001321078511,
1094,0.001486947644,
1093,0.001384774921,
1092,0.001414510072,
1091,0.0013790878,
1090,0.001439857879,
1089,0.001313834451,
1088,0.001447519753,
1087,0.00145661016,
1086,0.001354184933,
1085,0.001421677996,
1084,0.001526067266,
1083,0.001320533338,
1082,0.00142284669,
1081,0.001485856599,
1080,0.001450999989,
1079,0.001389111741,
1078,0.001537912991,
1077,0.001512169838,
1076,0.001458921703,
1075,0.001519521116,
1074,0.001547498978,
1073,0.001527496031,
1072,0.001622323063,
1071,0.001391241211,
1070,0.001571113942,
1069,0.001457155566,
1068,0.001554902876,
1067,0.00145105191,
1066,0.001521001803,
1065,0.001577401068,
1064,0.001520560239,
1063,0.00158337655,
1062,0.001482765656,
1061,0.001539939316,
1060,0.001459389227,
1059,0.001572906505,
1058,0.001498688362,
1057,0.001469155191,
1056,0.001448039198,
1055,0.001423210255,
1054,0.001404147944,
1053,0.00156261865,
1052,0.001326738857,
1051,0.001453545294,
1050,0.001381710637,
1049,0.001381191309,
1048,0.001320299576,
1047,0.001384593197,
1046,0.001337982016,
1045,0.001411367673,
1044,0.001318508061,
1043,0.001367402263,
1042,0.001122570829,
1041,0.001497986959,
1040,0.001269515487,
1039,0.001359767863,
1038,0.00126427121,
1037,0.001423651702,
1036,0.001115174382,
1035,0.001188730006,
1034,0.001176789985,
1033,0.001251887763,
1032,0.001181072788,
1031,0.001317807008,
1030,0.001152288052,
1029,0.001263128943,
1028,0.001271488494,
1027,0.001136481878,
1026,0.001107700053,
1025,0.001313496847,
1024,0.001146500115,
1023,0.0009944859194,
1022,0.001122025889,
1021,0.001094646403,
1020,0.001026737154,
1019,0.001160152373,
1018,0.001239764271,
1017,0.001045549288,
1016,0.001054423745,
1015,0.0010114545,
1014,0.001002503093,
1013,0.001031537424,
1012,0.001053152257,
1011,0.000946074666,
1010,0.001023441902,
1009,0.000984990038,
1008,0.001069448423,
1007,0.0008436919888,
1006,0.001109283185,
1005,0.000923271873,
1004,0.000909575203,
1003,0.0009076037677,
1002,0.0009465416078,
1001,0.0007897219039,
1000,0.0009893747047,
999,0.0007319727447,
998,0.0008241623873,
997,0.0006840833812,
996,0.0007970351144,
995,0.000633503194,
994,0.0008808862185,
993,0.0007241161657,
992,0.0007555434131,
991,0.0006839796552,
990,0.0008080051048,
989,0.0004994461779,
988,0.000715689268,
987,0.0005775114987,
986,0.0006037955754,
985,0.0005468486925,
984,0.0006217598566,
983,0.0005275916192,
982,0.0005164472968,
981,0.0005352632725,
980,0.0005641626776,
979,0.0003815455129,
978,0.0005454750499,
977,0.0004941594088,
976,0.0003991379053,
975,0.0005072209751,
974,0.0004419170436,
973,0.0004593304766,
972,0.0004676487297,
971,0.0004566613934,
970,0.0003321663244,
969,0.0004781180469,
968,0.0003640056821,
967,0.0003793432843,
966,0.0003624512174,
965,0.0004350762465,
964,0.0002162016463,
963,0.0003094216227,
962,0.0003599122865,
961,0.0003730475437,
960,0.0002497160458,
959,0.0004352057877,
958,0.0003448344069,
957,0.0004005629453,
956,0.0003865459294,
955,0.0004546919954,
954,0.0001957161294,
953,0.000451711996,
952,0.0003830223286,
951,0.0003802501014,
950,0.0004315781407,
949,0.0005553759984,
948,0.0004055635654,
947,0.0006663498352,
946,0.0006686831475,
945,0.0006401656428,
944,0.000672597962,
943,0.0008227100479,
942,0.0007208231837,
941,0.0008284935611,
940,0.0009931367822,
939,0.0007831089897,
938,0.0008030257886,
937,0.0007817345904,
936,0.0007046697428,
935,0.0007466751267,
934,0.0009464378236,
933,0.00087873335,
932,0.0008530810592,
931,0.0008931034827,
930,0.0008042965201,
929,0.0007197600789,
928,0.0009356978117,
927,0.0007908110856,
926,0.0007324654143,
925,0.0007964126999,
924,0.000935619988,
923,0.0008329804405,
922,0.0008760357741,
921,0.0009015338146,
920,0.0007520687068,
919,0.000734591682,
918,0.0008405796252,
917,0.0006628498668,
916,0.0008995105163,
915,0.0006923022447,
914,0.0007953753229,
913,0.000674438721,
912,0.0007721915026,
911,0.0005333194276,
910,0.0006355252117,
909,0.0006538538146,
908,0.0006855871179,
907,0.0006023439346,
906,0.0006766165025,
905,0.0005827992572,
904,0.0006224598037,
903,0.0003985678777,
902,0.0006013329839,
901,0.0003371143539,
900,0.0004378488229,
899,0.0003879450378,
898,0.0003650678846,
897,0.0002575640974,
896,0.0003634875175,
895,0.0002341240179,
894,0.0002656971919,
893,0.0002056868252,
892,0.0002546372416,
891,-0.00010782756,
890,-7.366521459E-5,
889,0.0001085016484,
888,3.81058162E-5,
887,0.0002131196816,
886,-0.0001002189019,
885,-9.587104432E-5,
884,-0.0002916886588,
883,-0.0001501126681,
882,-0.0003573899157,
881,-0.0002725454688,
880,-0.0004159435921,
879,-0.0003561484045,
878,-0.0005853530602,
877,-0.0005494185025,
876,-0.0007885468658,
875,-0.0006523022312,
874,-0.0009963978082,
873,-0.000880317355,
872,-0.001074903645,
871,-0.0008881706744,
870,-0.001187576214,
869,-0.001095199259,
868,-0.001240804093,
867,-0.001240236219,
866,-0.001367265009,
865,-0.001412369078,
864,-0.001483473345,
863,-0.001535736374,
862,-0.001805618638,
861,-0.001795100863,
860,-0.001990205608,
859,-0.002019218868,
858,-0.002068429021,
857,-0.002206033096,
856,-0.00237556966,
855,-0.002458871575,
854,-0.002643592888,
853,-0.002717737108,
852,-0.002866193419,
851,-0.003022002522,
850,-0.003200471634,
849,-0.003431570483,
848,-0.003395922016,
847,-0.003699045628,
846,-0.003799954196,
845,-0.004008062184,
844,-0.004262930248,
843,-0.004424849991,
842,-0.004490082618,
841,-0.004763205536,
840,-0.00496865157,
839,-0.005229708739,
838,-0.005261779763,
837,-0.005584049039,
836,-0.005573929287,
835,-0.006073718425,
834,-0.005876966752,
833,-0.006331101991,
832,-0.006451957859,
831,-0.006506686565,
830,-0.006554371212,
829,-0.006729763467,
828,-0.006719211116,
827,-0.006950585637,
826,-0.007008868735,
825,-0.007263713051,
824,-0.007141198497,
823,-0.007197979372,
822,-0.007326026447,
821,-0.00750176888,
820,-0.00749703683,
819,-0.007735422347,
818,-0.007790244184,
817,-0.008075884543,
816,-0.008127207868,
815,-0.008220946416,
814,-0.008141994476,
813,-0.008477212861,
812,-0.008303490467,
811,-0.008314258419,
810,-0.00847619772,
809,-0.008391198702,
808,-0.008311515674,
807,-0.008363368921,
806,-0.008278804831,
805,-0.008179236203,
804,-0.008207788691,
803,-0.008245990612,
802,-0.008138488047,
801,-0.007871293463,
800,-0.008059012704,
799,-0.000173194363,
798,-0.0003308519372,
797,-0.0001869082334,
796,-0.0005116711254,
795,-0.0003103653726,
794,-0.0002777711488,
793,-0.0003108827223,
792,-0.0003406292817,
791,-0.0001509924914,
790,-0.00043683892,
789,-0.0002467267332,
788,-0.0002185778721,
787,-0.0003423881426,
786,-0.0002737354953,
785,-0.0001027551407,
784,-0.0002642670879,
783,-0.0002256669977,
782,-0.0002966036554,
781,-0.0001593765483,
780,-0.0002977935947,
779,4.299872307E-5,
778,-0.000250452169,
777,-0.0001104155017,
776,-0.0001895992173,
775,-0.0001475767203,
774,-0.0001897027105,
773,-2.899218771E-6,
772,-6.175952876E-5,
771,-1.382288701E-5,
770,-0.0001597905648,
769,-1.40817383E-5,
768,-0.0001842172496,
767,-0.0001293070527,
766,-9.716505156E-5,
765,-4.762757089E-5,
764,1.817232987E-5,
763,-3.002762014E-6,
762,4.550991798E-5,
761,1.017330487E-5,
760,0.0001403505157,
759,-2.852540092E-5,
758,8.752927533E-5,
757,-1.164852983E-5,
756,7.717292465E-5,
755,-1.133790647E-5,
754,0.0002843468974,
753,0.0001071293518,
752,0.0002256289299,
751,8.048693417E-5,
750,0.0001891122811,
749,0.00014659109,
748,0.0002530313795,
747,0.0001791160612,
746,0.0004178710806,
745,0.000260413246,
744,0.0003900177544,
743,0.0003194726596,
742,0.0003656896879,
741,0.0002699450997,
740,0.0005200497108,
739,0.0002860564855,
738,0.0004146322317,
737,0.0004197625676,
736,0.0004975025076,
735,0.0003469328512,
734,0.0003336688387,
733,0.0004078436759,
732,0.0005946711171,
731,0.0005802590167,
730,0.0005352114094,
729,0.0006482022,
728,0.0006338401581,
727,0.0004617922532,
726,0.0006499909796,
725,0.0006870390498,
724,0.0006220450159,
723,0.0007409704267,
722,0.0006892687525,
721,0.0007055253373,
720,0.0008066565497,
719,0.0008292457205,
718,0.0007904220838,
717,0.0008827538113,
716,0.0009566333611,
715,0.001005409053,
714,0.0008796152542,
713,0.001110502868,
712,0.001067839446,
711,0.00107785617,
710,0.0008617440471,
709,0.001234702184,
708,0.001247344655,
707,0.00124838308,
706,0.001198905287,
705,0.001238985453,
704,0.001401706832,
703,0.001373426756,
702,0.001411965,
701,0.001434897305,
700,0.001301475568,
699,0.001427365583,
698,0.001510715112,
697,0.0016147102,
696,0.001501233899,
695,0.001770606497,
694,0.001737494371,
693,0.001651216997,
692,0.001739183674,
691,0.001766577829,
690,0.001908722566,
689,0.001978252083,
688,0.001956149004,
687,0.002074192045,
686,0.002193671884,
685,0.002167525468,
684,0.002214902313,
683,0.002305950038,
682,0.002266837982,
681,0.002340224572,
680,0.00246305787,
679,0.002506170888,
678,0.002610977739,
677,0.00262186327,
676,0.002626681235,
675,0.002743421821,
674,0.002850787016,
673,0.002854408929,
672,0.003023575759,
671,0.003009004518,
670,0.003243009327,
669,0.003295120317,
668,0.003346350743,
667,0.003455430735,
666,0.003555168631,
665,0.003587741172,
664,0.00375889102,
663,0.003853344824,
662,0.003901245305,
661,0.003895629663,
660,0.004093292635,
659,0.004200312775,
658,0.004287307151,
657,0.004482637625,
656,0.004709561355,
655,0.004715030547,
654,0.004912962206,
653,0.005122089759,
652,0.005191873759,
651,0.005260987673,
650,0.005511860363,
649,0.005639107898,
648,0.005873144139,
647,0.005956275389,
646,0.00620158948,
645,0.006594906095,
644,0.006696182769,
643,0.006923714187,
642,0.007136180531,
641,0.007485861424,
640,0.007659318857,
639,0.007864712738,
638,0.008288508281,
637,0.008527118713,
636,0.008842334151,
635,0.009215654805,
634,0.00956801977,
633,0.00994485151,
632,0.01036620326,
631,0.01082474552,
630,0.01116211154,
629,0.01172544062,
628,0.01226902381,
627,0.01294496097,
626,0.01345365308,
625,0.01406907942,
624,0.01478483807,
623,0.0155072771,
622,0.0164021533,
621,0.01732880622,
620,0.0182229951,
619,0.01931310631,
618,0.02023786306,
617,0.02167277783,
616,0.02302416787,
615,0.02442928217,
614,0.02611149102,
613,0.02809941582,
612,0.03001539409,
611,0.0324216336,
610,0.03492803872,
609,0.03800667077,
608,0.04142792523,
607,0.0453177765,
606,0.04972055182,
605,0.05495341122,
604,0.06121232733,
603,0.06840488315,
602,0.07729522884,
601,0.08817301691,
600,0.101512596,
599,0.1183590516,
598,0.1401628107,
597,0.1680278629,
596,0.2056855708,
595,0.2570302486,
594,0.3295589983,
593,0.4344836473,
592,0.5875687003,
591,0.8123319149,
590,1.127921104,
589,1.539229751,
588,1.974200487,
587,2.16386199,
586,1.983065128,
585,1.669529676,
584,1.36521852,
583,1.107497692,
582,0.9034305811,
581,0.7436639071,
580,0.6203222275,
579,0.5242239237,
578,0.4481520653,
577,0.3876544535,
576,0.339720279,
575,0.30026564,
574,0.2682833672,
573,0.2416351736,
572,0.2189759314,
571,0.1997787058,
570,0.1830995381,
569,0.1688916385,
568,0.156302616,
567,0.1453971267,
566,0.135884285,
565,0.1278283,
564,0.1208503842,
563,0.1147271618,
562,0.1089768186,
561,0.1034666598,
560,0.09854587168,
559,0.09427364171,
558,0.09012830257,
557,0.08636641502,
556,0.08287864923,
555,0.07979397476,
554,0.0768879652,
553,0.07416714728,
552,0.07172645628,
551,0.06958383322,
550,0.06767486036,
549,0.06647440791,
548,0.06533743441,
547,0.06477508694,
546,0.06405260414,
545,0.06341530383,
544,0.06289887428,
543,0.0625718832,
542,0.06208186969,
541,0.06199204922,
540,0.06185657531,
539,0.06205615774,
538,0.06230727956,
537,0.06274086982,
536,0.06335980445,
535,0.06411734223,
534,0.06497583538,
533,0.06583996862,
532,0.06678120047,
531,0.06790552288,
530,0.06910539418,
529,0.07070508599,
528,0.07251279056,
527,0.07438954711,
526,0.07650303096,
525,0.07854983211,
524,0.08054614067,
523,0.08272782713,
522,0.08458474278,
521,0.08642481267,
520,0.08777178079,
519,0.08886703849,
518,0.08989463747,
517,0.0902505517,
516,0.08999242634,
515,0.0893523097,
514,0.08839662373,
513,0.08685269207,
512,0.08528937399,
511,0.08329931647,
510,0.08116625249,
509,0.07882960886,
508,0.07621123642,
507,0.07374544442,
506,0.07116501778,
505,0.06888027489,
504,0.06648372859,
503,0.06416718662,
502,0.06210014597,
501,0.0599216409,
500,0.05810334533,
499,0.05626416579,
498,0.05469534546,
497,0.05319197476,
496,0.05192746967,
495,0.05063641071,
494,0.04957727343,
493,0.04852386937,
492,0.04778241366,
491,0.04673597217,
490,0.04607952759,
489,0.0453732647,
488,0.04468209296,
487,0.04367167875,
486,0.04307124019,
485,0.04245093465,
484,0.04157412052,
483,0.04053233936,
482,0.03966242075,
481,0.03877403215,
480,0.03762640432,
479,0.03648095578,
478,0.03543507308,
477,0.03435412794,
476,0.03321612254,
475,0.03203162178,
474,0.03084328398,
473,0.0297250431,
472,0.02872451581,
471,0.02770986967,
470,0.0266766157,
469,0.02565407753,
468,0.02483099699,
467,0.02393123694,
466,0.02311512455,
465,0.02239099517,
464,0.02152567543,
463,0.02100445703,
462,0.02024282515,
461,0.01963018626,
460,0.01892457344,
459,0.01853109337,
458,0.01792968251,
457,0.01739139296,
456,0.01689954661,
455,0.0164788831,
454,0.01592232846,
453,0.0154347159,
452,0.01500295475,
451,0.01458661258,
450,0.01424026489,
449,0.01374181919,
448,0.01325584762,
447,0.01295709517,
446,0.01237930264,
445,0.01202797703,
444,0.01176028047,
443,0.01134209242,
442,0.01097840909,
441,0.01068082079,
440,0.01031705458,
439,0.009910660796,
438,0.009666181169,
437,0.009515362792,
436,0.00912137609,
435,0.008708439767,
434,0.008538232185,
433,0.008207540959,
432,0.007997212932,
431,0.007813262753,
430,0.00744688604,
429,0.007259562146,
428,0.00719012972,
427,0.006767850369,
426,0.006537247449,
425,0.006476311479,
424,0.006244523916,
423,0.005943967495,
422,0.005959004629,
421,0.005636800546,
420,0.005376210436,
419,0.005309803411,
418,0.004978287034,
417,0.004855473526,
416,0.004869713914,
415,0.004750045482,
414,0.00460482249,
413,0.004369011149,
412,0.004223418888,
411,0.004029877018,
410,0.003865541425,
409,0.003702756017,
408,0.003860004479,
407,0.003503835527,
406,0.003566574072,
405,0.003204099834,
404,0.003353759181,
403,0.003150174627,
402,0.002916897414,
401,0.0028190515,
400,0.002726645907,
399,0.002631655429,
398,0.002464619931,
397,0.002448479412,
396,0.002376532182,
395,0.002213237109,
394,0.002178452211,
393,0.002183941659,
392,0.001998379827,
391,0.001837332384,
390,0.001796702971,
389,0.001620192546,
388,0.001660363632,
387,0.001481025363,
386,0.001454220619,
385,0.001452272641,
384,0.001422586967,
383,0.001453441451,
382,0.001359248534,
381,0.001267724088,
380,0.001167627517,
379,0.00121808832,
378,0.0010590686,
377,0.001035740948,
376,0.0009097827133,
375,0.00114476122,
374,0.001116290339,
373,0.0009575154399,
372,0.0009209631244,
371,0.001157764462,
370,0.001066723722,
369,0.001239063335,
368,0.001388877979,
367,0.001310147461,
366,0.001444455003,
365,0.00171561155,
364,0.001872505993,
363,0.002309983596,
362,0.002435932169,
361,0.002638530917,
360,0.002928311937,
359,0.003241418628,
358,0.003432365367,
357,0.003908062819,
356,0.00435240753,
355,0.005020000972,
354,0.005329824053,
353,0.005908488762,
352,0.006405716762,
351,0.006912851706,
350,0.007499161176,
349,0.007500030566,
348,0.008046654053,
347,0.008700068109,
346,0.009208356962,
345,0.009995707311,
344,0.01051394921,
343,0.01144700684,
342,0.01207143813,
341,0.01274733432,
340,0.01339448895,
339,0.01428191457,
338,0.01490339264,
337,0.01569897123,
336,0.01670067757,
335,0.01724866778,
334,0.01828281954,
333,0.01885538734,
332,0.01988958195,
331,0.02057847008,
330,0.02166477777,
329,0.02253222838,
328,0.02336625755,
327,0.02432077378,
326,0.02526081912,
325,0.02615550533,
324,0.02713789046,
323,0.02794134058,
322,0.02902607061,
321,0.02979146503,
320,0.03050561249,
319,0.0314662829,
318,0.03230235353,
317,0.032966014,
316,0.03374068439,
315,0.03432784975,
314,0.03499026597,
313,0.03555656224,
312,0.03622325137,
311,0.03680761158,
310,0.03765192255,
309,0.03821025416,
308,0.03873842955,
307,0.03925474733,
306,0.03978234902,
305,0.04052003473,
304,0.04134116322,
303,0.04212756827,
302,0.04346363246,
301,0.0451149717,
300,0.04732943699,
299,0.04949322343,
298,0.05168586224,
297,0.05293925479,
296,0.05323133245,
295,0.05215987191,
294,0.05040133372,
293,0.04900550842,
292,0.04801830277,
291,0.04800043628,
290,0.04825727269,
289,0.04849990085,
288,0.04856945947,
287,0.04822987691,
286,0.04727089778,
285,0.04567576945,
284,0.04392785951,
283,0.04240889475,
282,0.04121340439,
281,0.04023067281,
280,0.03937065229,
279,0.03860729933,
278,0.03753339872,
277,0.03655128926,
276,0.03563675284,
275,0.03483042121,
274,0.03398636729,
273,0.03351250663,
272,0.03320843726,
271,0.03290005401,
270,0.03265864402,
269,0.03263199329,
268,0.03244280443,
267,0.0323978141,
266,0.03244673461,
265,0.03269068152,
264,0.03286939859,
263,0.03345809504,
262,0.03392559662,
261,0.03488882259,
260,0.03562247753,
259,0.03656613082,
258,0.03741429001,
257,0.03833170608,
256,0.03893496841,
255,0.03968309611,
254,0.04031439871,
253,0.04121388867,
252,0.0419223085,
251,0.04290539399,
250,0.04410521314,
249,0.04510816187,
248,0.04636190087,
247,0.04773806036,
246,0.04925922677,
245,0.05121685565,
244,0.05332808197,
243,0.05599030107,
242,0.05919774622,
241,0.06285208464,
240,0.06686820835,
239,0.07143351436,
238,0.07652013749,
237,0.08196509629,
236,0.08788459003,
235,0.09418173879,
234,0.1008183956,
233,0.1079723909,
232,0.1156884953,
231,0.1243514866,
230,0.1337610781,
229,0.1439823955,
228,0.1548098177,
227,0.1659449786,
226,0.1773911566,
225,0.1892791539,
224,0.2019591928,
223,0.2155674547,
222,0.2304756194,
221,0.2462732196,
220,0.2627328932,
219,0.2784545124,
218,0.2929008603,
217,0.3054489791,
216,0.3159227967,
215,0.3243866563,
214,0.3314028084,
213,0.3372862339,
212,0.3431214988,
211,0.3483168781,
210,0.3531499505,
209,0.3572174013,
208,0.3603898883,
207,0.3626163602,
206,0.3645618558,
205,0.3669781387,
204,0.3703009486,
203,0.3748143315,
202,0.3813766539,
201,0.3899384141,
200,0.400516361,

