TDBC_NaOH_c2_1mmK_abs-2,,
Wavelength (nm),Abs,
1200,-0.006372887641,
1199.5,-0.006373040844,
1199,-0.006580123212,
1198.5,-0.006568955723,
1198,-0.006446397863,
1197.5,-0.00651311269,
1197,-0.006499903277,
1196.5,-0.006427881308,
1196,-0.006385642104,
1195.5,-0.006413598079,
1195,-0.006481337827,
1194.5,-0.006462261546,
1194,-0.00637921365,
1193.5,-0.006411914714,
1193,-0.00641696481,
1192.5,-0.006362224929,
1192,-0.006372530479,
1191.5,-0.006407476496,
1191,-0.006370336749,
1190.5,-0.00649408903,
1190,-0.006326510105,
1189.5,-0.006366816349,
1189,-0.006433339324,
1188.5,-0.00630742684,
1188,-0.006164174993,
1187.5,-0.006351561751,
1187,-0.006383243948,
1186.5,-0.00640849676,
1186,-0.006445582025,
1185.5,-0.00638701953,
1185,-0.006358755287,
1184.5,-0.00637931563,
1184,-0.006234913599,
1183.5,-0.006324520335,
1183,-0.00639431458,
1182.5,-0.006323193666,
1182,-0.00626012357,
1181.5,-0.006400844548,
1181,-0.006370336749,
1180.5,-0.006316203158,
1180,-0.00637431629,
1179.5,-0.006341408473,
1179,-0.006486693397,
1178.5,-0.006394620519,
1178,-0.00629395619,
1177.5,-0.006360847503,
1177,-0.006330949254,
1176.5,-0.006345541216,
1176,-0.006243078969,
1175.5,-0.006255530752,
1175,-0.006369469687,
1174.5,-0.006327785552,
1174,-0.006265635137,
1173.5,-0.00632079551,
1173,-0.006318499334,
1172.5,-0.006245018449,
1172,-0.006317172665,
1171.5,-0.006484857295,
1171,-0.006410945207,
1170.5,-0.006363755558,
1170,-0.00616320502,
1169.5,-0.00627645338,
1169,-0.006307171658,
1168.5,-0.006345745176,
1168,-0.006402374711,
1167.5,-0.006417219993,
1167,-0.006443643477,
1166.5,-0.006297323853,
1166,-0.006365081761,
1165.5,-0.006382530089,
1165,-0.006410435308,
1164.5,-0.006405486725,
1164,-0.006240935531,
1163.5,-0.006320233922,
1163,-0.00634125527,
1162.5,-0.006416454446,
1162,-0.006392631214,
1161.5,-0.006483531091,
1161,-0.00635288842,
1160.5,-0.006329724565,
1160,-0.006283801515,
1159.5,-0.006234811619,
1159,-0.006370438728,
1158.5,-0.00634115329,
1158,-0.006297425833,
1157.5,-0.006336051039,
1157,-0.006382682826,
1156.5,-0.006345133297,
1156,-0.006372785661,
1155.5,-0.006401609629,
1155,-0.006366459187,
1154.5,-0.006349725183,
1154,-0.006121807732,
1153.5,-0.006265226752,
1153,-0.006493935827,
1152.5,-0.006291761994,
1152,-0.006220215466,
1151.5,-0.006285689306,
1151,-0.006250835955,
1150.5,-0.006126350723,
1150,-0.005980434828,
1149.5,-0.005973745137,
1149,-0.005963327829,
1148.5,-0.005884015467,
1148,-0.005848465487,
1147.5,-0.006042728201,
1147,-0.006162133068,
1146.5,-0.005954697728,
1146,-0.005842846818,
1145.5,-0.005720901303,
1145,-0.005526137073,
1144.5,-0.005636638496,
1144,-0.005561968777,
1143.5,-0.005525983404,
1143,-0.005568920169,
1142.5,-0.005440711509,
1142,-0.005196253769,
1141.5,-0.00518699456,
1141,-0.005064404104,
1140.5,-0.005130308215,
1140,-0.00516074989,
1139.5,-0.005026689265,
1139,-0.004936251324,
1138.5,-0.004949815571,
1138,-0.004717730917,
1137.5,-0.004903234541,
1137,-0.005018603057,
1136.5,-0.004890999757,
1136,-0.004833814222,
1135.5,-0.00484738173,
1135,-0.004780871794,
1134.5,-0.004898627289,
1134,-0.005012615584,
1133.5,-0.005014867056,
1133,-0.004850044381,
1132.5,-0.004384772852,
1132,-0.004092795309,
1131.5,-0.004129515029,
1131,-0.00409715483,
1130.5,-0.004009857308,
1130,-0.004044275731,
1129.5,-0.004148540087,
1129,-0.004227144644,
1128.5,-0.004251394887,
1128,-0.004143001977,
1127.5,-0.004202072974,
1127,-0.004293945152,
1126.5,-0.004347562324,
1126,-0.004220479634,
1125.5,-0.004361606203,
1125,-0.00452471897,
1124.5,-0.004439762793,
1124,-0.004454930779,
1123.5,-0.004491056316,
1123,-0.004465435632,
1122.5,-0.004336490761,
1122,-0.004177717026,
1121.5,-0.004321062006,
1121,-0.004240731243,
1120.5,-0.00418679323,
1120,-0.004102744628,
1119.5,-0.004111873452,
1119,-0.004134078976,
1118.5,-0.004082281608,
1118,-0.003964303993,
1117.5,-0.004008780234,
1117,-0.003919926006,
1116.5,-0.003937267233,
1116,-0.00394942658,
1115.5,-0.003985901363,
1115,-0.003988569137,
1114.5,-0.003989749122,
1114,-0.003872772679,
1113.5,-0.003843472339,
1113,-0.003933214117,
1112.5,-0.003932341933,
1112,-0.003774190554,
1111.5,-0.003906278405,
1111,-0.003896272974,
1110.5,-0.004047199618,
1110,-0.003945989069,
1109.5,-0.003988876939,
1109,-0.004068228416,
1108.5,-0.004032581113,
1108,-0.004010986071,
1107.5,-0.004064638168,
1107,-0.004113617353,
1106.5,-0.004078588914,
1106,-0.004117822275,
1105.5,-0.00418679323,
1105,-0.004135001916,
1104.5,-0.004110027105,
1104,-0.004166897852,
1103.5,-0.004031042103,
1103,-0.004086743575,
1102.5,-0.004010831937,
1102,-0.003980361391,
1101.5,-0.00406884402,
1101,-0.004143412225,
1100.5,-0.004149360582,
1100,-0.004077819642,
1099.5,-0.003980566282,
1099,-0.004025246017,
1098.5,-0.004056944977,
1098,-0.004021450412,
1097.5,-0.004058381077,
1097,-0.004080229905,
1096.5,-0.003978155088,
1096,-0.003987594508,
1095.5,-0.004070895724,
1095,-0.004175563809,
1094.5,-0.004001598805,
1094,-0.004079819657,
1093.5,-0.00404037768,
1093,-0.004003855865,
1092.5,-0.004074844997,
1092,-0.003932701424,
1091.5,-0.003948810976,
1091,-0.00394142326,
1090.5,-0.003902481403,
1090,-0.00398790231,
1089.5,-0.003985080868,
1089,-0.004027707968,
1088.5,-0.004081358202,
1088,-0.003999187611,
1087.5,-0.004022270907,
1087,-0.003881598124,
1086.5,-0.003985439893,
1086,-0.004069459625,
1085.5,-0.004024168942,
1085,-0.004126540385,
1084.5,-0.004086794797,
1084,-0.003999187611,
1083.5,-0.004005497321,
1083,-0.004107873421,
1082.5,-0.004200380761,
1082,-0.004211814608,
1081.5,-0.004212994128,
1081,-0.004220530856,
1080.5,-0.004085307475,
1080,-0.004096847028,
1079.5,-0.004108642694,
1079,-0.004183562472,
1078.5,-0.004206225742,
1078,-0.004136027768,
1077.5,-0.00406468939,
1077,-0.004225042649,
1076.5,-0.004161565099,
1076,-0.004189920612,
1075.5,-0.004215301014,
1075,-0.004217608366,
1074.5,-0.004168641288,
1074,-0.00410305243,
1073.5,-0.004194945563,
1073,-0.004192382097,
1072.5,-0.00425483007,
1072,-0.004152283538,
1071.5,-0.004210532643,
1071,-0.004150283523,
1070.5,-0.004139309749,
1070,-0.004213250242,
1069.5,-0.004306452814,
1069,-0.00431562867,
1068.5,-0.004299276508,
1068,-0.004172384273,
1067.5,-0.00425411202,
1067,-0.004328135867,
1066.5,-0.00434556324,
1066,-0.00436678296,
1065.5,-0.004326649476,
1065,-0.004302454647,
1064.5,-0.004298507236,
1064,-0.004359351005,
1063.5,-0.00426672399,
1063,-0.004346229602,
1062.5,-0.004287742078,
1062,-0.004143924918,
1061.5,-0.004374112468,
1061,-0.00432480406,
1060.5,-0.004356532358,
1060,-0.004554383457,
1059.5,-0.004468048923,
1059,-0.004606073257,
1058.5,-0.004426438827,
1058,-0.004391794093,
1057.5,-0.004466409329,
1057,-0.004582816269,
1056.5,-0.0044655893,
1056,-0.004451138899,
1055.5,-0.004572467878,
1055,-0.004558584187,
1054.5,-0.004576975945,
1054,-0.004551155958,
1053.5,-0.004549874924,
1053,-0.004612374119,
1052.5,-0.004561812151,
1052,-0.004533326719,
1051.5,-0.004556227941,
1051,-0.004689972848,
1050.5,-0.004633836914,
1050,-0.004568984266,
1049.5,-0.004619442858,
1049,-0.004679678474,
1048.5,-0.004627690185,
1048,-0.004486957099,
1047.5,-0.004589065909,
1047,-0.004729202483,
1046.5,-0.004787374754,
1046,-0.004800636321,
1045.5,-0.00482951384,
1045,-0.004791675601,
1044.5,-0.004763973411,
1044,-0.004873645492,
1043.5,-0.00484917406,
1043,-0.00491516199,
1042.5,-0.004903541878,
1042,-0.004701496568,
1041.5,-0.004878201522,
1041,-0.00495360326,
1040.5,-0.004987844732,
1040,-0.004809596576,
1039.5,-0.004986871965,
1039,-0.005075610708,
1038.5,-0.005015634932,
1038,-0.004977096338,
1037.5,-0.004966501612,
1037,-0.00506087346,
1036.5,-0.00496865157,
1036,-0.004958107602,
1035.5,-0.005092496518,
1035,-0.005080420524,
1034.5,-0.0050955154,
1034,-0.00504680071,
1033.5,-0.00513511803,
1033,-0.00526725268,
1032.5,-0.005192570388,
1032,-0.005255488679,
1031.5,-0.005285767838,
1031,-0.005299525801,
1030.5,-0.005305611994,
1030,-0.005298451986,
1029.5,-0.005321159028,
1029,-0.005451192614,
1028.5,-0.005392649211,
1028,-0.005308629479,
1027.5,-0.005351075903,
1027,-0.005398478359,
1026.5,-0.005345297512,
1026,-0.005471386947,
1025.5,-0.005594220012,
1025,-0.00561548071,
1024.5,-0.005674913991,
1024,-0.005709353834,
1023.5,-0.005711244419,
1023,-0.005765862297,
1022.5,-0.00577112427,
1022,-0.00575589994,
1021.5,-0.005708127748,
1021,-0.005806680769,
1020.5,-0.005819553509,
1020,-0.005893770605,
1019.5,-0.006050897297,
1019,-0.006041196641,
1018.5,-0.006091995165,
1018,-0.005976707209,
1017.5,-0.006122062914,
1017,-0.006181528792,
1016.5,-0.006154272705,
1016,-0.006032465491,
1015.5,-0.006112976465,
1015,-0.006214601453,
1014.5,-0.006262165029,
1014,-0.00631987676,
1013.5,-0.006354112644,
1013,-0.006351357792,
1012.5,-0.006457313895,
1012,-0.006350388285,
1011.5,-0.006480470765,
1011,-0.006673482247,
1010.5,-0.00661219703,
1010,-0.00660827104,
1009.5,-0.006694894284,
1009,-0.006762794685,
1008.5,-0.006788738538,
1008,-0.006712482311,
1007.5,-0.006748726126,
1007,-0.006876854692,
1006.5,-0.00685713347,
1006,-0.006794447079,
1005.5,-0.007008359302,
1005,-0.007113849744,
1004.5,-0.007167730946,
1004,-0.007231585681,
1003.5,-0.007308158092,
1003,-0.00748456968,
1002.5,-0.007427164819,
1002,-0.007474697195,
1001.5,-0.007440600544,
1001,-0.007435104344,
1000.5,-0.007525887806,
1000,-0.007523750886,
999.5,-0.00763476314,
999,-0.007758816704,
998.5,-0.007857515477,
998,-0.00774233928,
997.5,-0.007824771106,
997,-0.007740661036,
996.5,-0.007783582434,
996,-0.007895799354,
995.5,-0.008138183504,
995,-0.008388354443,
994.5,-0.008243145421,
994,-0.008224299178,
993.5,-0.008366873488,
993,-0.008380534127,
992.5,-0.008451166563,
992,-0.008483407088,
991.5,-0.008589707315,
991,-0.008571485057,
990.5,-0.00845903717,
990,-0.008279516362,
989.5,-0.008630210534,
989,-0.008913980797,
988.5,-0.008886388503,
988,-0.00902813673,
987.5,-0.009001109749,
987,-0.009022204205,
986.5,-0.009139728732,
986,-0.009080666117,
985.5,-0.009140083566,
985,-0.009228838608,
984.5,-0.009266191162,
984,-0.009254737757,
983.5,-0.009356390685,
983,-0.009286512621,
982.5,-0.009361102246,
982,-0.009482486174,
981.5,-0.009624850005,
981,-0.009823252447,
980.5,-0.00972135365,
980,-0.009590415284,
979.5,-0.009660700336,
979,-0.009784784168,
978.5,-0.009774457663,
978,-0.009825428948,
977.5,-0.00991348736,
977,-0.01017947961,
976.5,-0.01014008187,
976,-0.01006759889,
975.5,-0.01018033922,
975,-0.01021396834,
974.5,-0.01004498638,
974,-0.01008530334,
973.5,-0.0102542704,
973,-0.01034188829,
972.5,-0.01031949278,
972,-0.01020092145,
971.5,-0.01039188262,
971,-0.01052353997,
970.5,-0.0104972627,
970,-0.01044096239,
969.5,-0.0106148934,
969,-0.01080284454,
968.5,-0.01076794788,
968,-0.01085213013,
967.5,-0.01107248105,
967,-0.01113985199,
966.5,-0.01108378638,
966,-0.01115176082,
965.5,-0.01127420831,
965,-0.01143580489,
964.5,-0.01147795934,
964,-0.01146298368,
963.5,-0.01151239593,
963,-0.01148516964,
962.5,-0.01176294964,
962,-0.01182572916,
961.5,-0.01190481987,
961,-0.01217548549,
960.5,-0.01216063462,
960,-0.01191660669,
959.5,-0.01212423574,
959,-0.01236029714,
958.5,-0.01244205795,
958,-0.01246011909,
957.5,-0.01265315711,
957,-0.01277568471,
956.5,-0.0127947377,
956,-0.01290647127,
955.5,-0.01301501039,
955,-0.01310955826,
954.5,-0.01302571222,
954,-0.01297200006,
953.5,-0.01295963861,
953,-0.01284284238,
952.5,-0.01316290163,
952,-0.01341616921,
951.5,-0.01324918214,
951,-0.01311538555,
950.5,-0.01309061982,
950,-0.01313191094,
949.5,-0.0132736871,
949,-0.01349707972,
948.5,-0.01339769643,
948,-0.01326956972,
947.5,-0.01348242443,
947,-0.0136374319,
946.5,-0.01353386603,
946,-0.01355740149,
945.5,-0.01363361906,
945,-0.01359518524,
944.5,-0.0135589065,
944,-0.01348980237,
943.5,-0.01343373861,
943,-0.01386655495,
942.5,-0.01382252574,
942,-0.01381791197,
941.5,-0.01391509268,
941,-0.01386314537,
940.5,-0.01389423385,
940,-0.01404327992,
939.5,-0.01410818659,
939,-0.01417573914,
938.5,-0.01423416287,
938,-0.01412051544,
937.5,-0.01413835585,
937,-0.01432413794,
936.5,-0.01412647869,
936,-0.01412567776,
935.5,-0.01427123696,
935,-0.01433165185,
934.5,-0.01406348031,
934,-0.01398808975,
933.5,-0.01389032323,
933,-0.01387723535,
932.5,-0.01385652553,
932,-0.01383365877,
931.5,-0.01402774174,
931,-0.01403686404,
930.5,-0.01398904156,
930,-0.01379664708,
929.5,-0.01384072937,
929,-0.01384795085,
928.5,-0.01358474884,
928,-0.01329236571,
927.5,-0.01352764294,
927,-0.01350872312,
926.5,-0.0136102885,
926,-0.01348332781,
925.5,-0.01354861911,
925,-0.01354691293,
924.5,-0.01371012442,
924,-0.01379739959,
923.5,-0.01340738498,
923,-0.01350807026,
922.5,-0.01325656381,
922,-0.01321362704,
921.5,-0.01325962692,
921,-0.01327077486,
920.5,-0.01308454201,
920,-0.01282695867,
919.5,-0.01297119539,
919,-0.01292014029,
918.5,-0.01290943567,
918,-0.01262942143,
917.5,-0.01282479707,
917,-0.01258355659,
916.5,-0.01243129186,
916,-0.01235632226,
915.5,-0.01237000898,
915,-0.0123186307,
914.5,-0.01234364137,
914,-0.01205651462,
913.5,-0.01225617435,
913,-0.01215987932,
912.5,-0.01203773171,
912,-0.01187026408,
911.5,-0.01219250076,
911,-0.01215429138,
910.5,-0.01197357289,
910,-0.01185928192,
909.5,-0.01174430549,
909,-0.01161820907,
908.5,-0.01162592135,
908,-0.01148234587,
907.5,-0.01140690967,
907,-0.01145239454,
906.5,-0.01149202697,
906,-0.01145022642,
905.5,-0.01145219337,
905,-0.01132576074,
904.5,-0.01122174226,
904,-0.01105471607,
903.5,-0.01112758927,
903,-0.0110540092,
902.5,-0.0110678887,
902,-0.01072890591,
901.5,-0.01099106763,
901,-0.01092104893,
900.5,-0.0109415967,
900,-0.01084793825,
899.5,-0.01092221029,
899,-0.01074900851,
898.5,-0.01072137989,
898,-0.01049700938,
897.5,-0.01054673363,
897,-0.01062838268,
896.5,-0.0104976166,
896,-0.01028814632,
895.5,-0.01039375365,
895,-0.01031463873,
894.5,-0.0102380896,
894,-0.01027692202,
893.5,-0.01009961776,
893,-0.0102094179,
892.5,-0.01000188291,
892,-0.009801892564,
891.5,-0.01003436279,
891,-0.01013517566,
890.5,-0.009919711389,
890,-0.009884592146,
889.5,-0.009872193448,
889,-0.009693812579,
888.5,-0.009883781895,
888,-0.009750412777,
887.5,-0.009847545996,
887,-0.009825934656,
886.5,-0.009573348798,
886,-0.009549900889,
885.5,-0.009424078278,
885,-0.009199745953,
884.5,-0.009257677011,
884,-0.009250125848,
883.5,-0.009163604118,
883,-0.009302830324,
882.5,-0.009092428721,
882,-0.009070627391,
881.5,-0.009090198204,
881,-0.009132935666,
880.5,-0.009073669091,
880,-0.008998675272,
879.5,-0.008947201073,
879,-0.008987214416,
878.5,-0.008818920702,
878,-0.008593666367,
877.5,-0.008660813794,
877,-0.008498840965,
876.5,-0.008574936539,
876,-0.00837149471,
875.5,-0.008416943252,
875,-0.00826376956,
874.5,-0.008283478208,
874,-0.007830973715,
873.5,-0.008026537485,
873,-0.008083558641,
872.5,-0.008019117638,
872,-0.007966358215,
871.5,-0.007827109657,
871,-0.007629014552,
870.5,-0.007625300903,
870,-0.007585060317,
869.5,-0.00762240123,
869,-0.007808601018,
868.5,-0.007522529922,
868,-0.007536522578,
867.5,-0.007481363602,
867,-0.007498919498,
866.5,-0.007437699474,
866,-0.007555907592,
865.5,-0.007265749853,
865,-0.007343843114,
864.5,-0.007203682326,
864,-0.006930154283,
863.5,-0.007067958359,
863,-0.007233062293,
862.5,-0.006999545731,
862,-0.007089758758,
861.5,-0.006967296824,
861,-0.006944573484,
860.5,-0.006780991331,
860,-0.006906562485,
859.5,-0.006648347247,
859,-0.006759634241,
858.5,-0.006663285661,
858,-0.006650692783,
857.5,-0.006737103686,
857,-0.006832773332,
856.5,-0.006647837348,
856,-0.006747706328,
855.5,-0.006594197359,
855,-0.00667842757,
854.5,-0.006610055454,
854,-0.006575024221,
853.5,-0.006432778202,
853,-0.006574208383,
852.5,-0.006307682022,
852,-0.006211386528,
851.5,-0.006341459695,
851,-0.006425177678,
850.5,-0.006409108639,
850,-0.006175965536,
849.5,-0.006278851535,
849,-0.006255122833,
848.5,-0.006248080172,
848,-0.00617274968,
847.5,-0.006193063688,
847,-0.006149678491,
846.5,-0.005898929201,
846,-0.006054215599,
845.5,-0.005895302631,
845,-0.005780013744,
844.5,-0.005889684893,
844,-0.006043494213,
843.5,-0.006038949825,
843,-0.005904291756,
842.5,-0.00595229771,
842,-0.005893975031,
841.5,-0.005974664353,
841,-0.005983804818,
840.5,-0.005865781102,
840,-0.005897703115,
839.5,-0.005752221216,
839,-0.005717580207,
838.5,-0.005704040173,
838,-0.005714769941,
837.5,-0.005723864771,
837,-0.005661014933,
836.5,-0.005644815043,
836,-0.005704602227,
835.5,-0.005653247237,
835,-0.00552184321,
834.5,-0.005899337586,
834,-0.006034252699,
833.5,-0.006085000932,
833,-0.005843715277,
832.5,-0.005606384017,
832,-0.005358132999,
831.5,-0.005048182327,
831,-0.00462779263,
830.5,-0.004309733864,
830,-0.004001444671,
829.5,-0.003681232687,
829,-0.003503937041,
828.5,-0.00307495473,
828,-0.002628155285,
827.5,-0.002392766764,
827,-0.002173632151,
826.5,-0.001656025648,
826,-0.001274203649,
825.5,-0.001201154781,
825,-0.001122620073,
824.5,-0.001118024229,
824,-0.001091222861,
823.5,-0.001140641514,
823,-0.001194856013,
822.5,-0.001125460141,
822,-0.001117507927,
821.5,-0.00119449466,
821,-0.001117611188,
820.5,-0.001194907702,
820,-0.00119872822,
819.5,-0.001205904642,
819,-0.001204562257,
818.5,-0.001175391255,
818,-0.001114616054,
817.5,-0.001250302768,
817,-0.0013284015,
816.5,-0.001265789499,
816,-0.001209002337,
815.5,-0.001297741779,
815,-0.001279881806,
814.5,-0.001316943089,
814,-0.001274203649,
813.5,-0.001327420818,
813,-0.001369742211,
812.5,-0.001289328095,
812,-0.00131942064,
811.5,-0.001385740703,
811,-0.001383470022,
810.5,-0.00131131697,
810,-0.001373354811,
809.5,-0.001323807868,
809,-0.001295573893,
808.5,-0.001367729506,
808,-0.001326182159,
807.5,-0.001459171297,
807,-0.001415671781,
806.5,-0.001412936719,
806,-0.00141448481,
805.5,-0.001463557128,
805,-0.001534653013,
804.5,-0.001507206587,
804,-0.001456023776,
803.5,-0.001447871095,
803,-0.001480016508,
802.5,-0.001432906953,
802,-0.001416600542,
801.5,-0.001564883278,
801,-0.001489509945,
800.5,-0.001465724199,
800,-0.001350543345,
799.5,0.05036839843,
799,-0.007573002484,
798.5,-0.007534944918,
798,-0.00748054916,
797.5,-0.007429861929,
797,-0.007355296519,
796.5,-0.00720113609,
796,-0.007303627208,
795.5,-0.007379830815,
795,-0.007485027425,
794.5,-0.007407570258,
794,-0.007347508334,
793.5,-0.007267327979,
793,-0.007460549939,
792.5,-0.007231789175,
792,-0.007297568955,
791.5,-0.007238612045,
791,-0.007014675997,
790.5,-0.007018190809,
790,-0.00717771193,
789.5,-0.007197215222,
789,-0.007330353372,
788.5,-0.007349442691,
788,-0.007245078683,
787.5,-0.007335850969,
787,-0.007249100599,
786.5,-0.007252970245,
786,-0.007247217,
785.5,-0.00740360003,
785,-0.007413575891,
784.5,-0.00729059428,
784,-0.007174656726,
783.5,-0.007197266445,
783,-0.007238816004,
782.5,-0.007372959051,
782,-0.007257298101,
781.5,-0.007273844909,
781,-0.007167680189,
780.5,-0.007310805377,
780,-0.007326535415,
779.5,-0.007309532724,
779,-0.007361760829,
778.5,-0.007384971716,
778,-0.007340738084,
777.5,-0.007293801755,
777,-0.007402989548,
776.5,-0.007244111039,
776,-0.007273590192,
775.5,-0.007269517053,
775,-0.007263611071,
774.5,-0.007237033918,
774,-0.007129230537,
773.5,-0.007332084235,
773,-0.007377794478,
772.5,-0.007437648717,
772,-0.007191155571,
771.5,-0.007283568848,
771,-0.007253021002,
770.5,-0.007200525142,
770,-0.007134170737,
769.5,-0.007302812766,
769,-0.007224202622,
768.5,-0.007205260918,
768,-0.007017528638,
767.5,-0.007198845036,
767,-0.007351580542,
766.5,-0.007233367767,
766,-0.007179697976,
765.5,-0.00721004745,
765,-0.007221504115,
764.5,-0.007218245417,
764,-0.007188405842,
763.5,-0.007210403681,
763,-0.007246554829,
762.5,-0.007411031052,
762,-0.007298536599,
761.5,-0.007212389726,
761,-0.007405076176,
760.5,-0.00733132055,
760,-0.007167730946,
759.5,-0.007259334438,
759,-0.007264425978,
758.5,-0.007214528043,
758,-0.00710763596,
757.5,-0.007278172299,
757,-0.007273386698,
756.5,-0.007115785033,
756,-0.006899479777,
755.5,-0.007176897489,
755,-0.007082526106,
754.5,-0.007029601838,
754,-0.006934128702,
753.5,-0.007096940186,
753,-0.007288252469,
752.5,-0.007234742399,
752,-0.007066328544,
751.5,-0.007098722737,
751,-0.007327044383,
750.5,-0.007167170756,
750,-0.006873746403,
749.5,-0.007094852161,
749,-0.00704900967,
748.5,-0.007074325345,
748,-0.007083850447,
747.5,-0.007051149383,
747,-0.006949210074,
746.5,-0.007007289212,
746,-0.00714486558,
745.5,-0.00699791545,
745,-0.00716528669,
744.5,-0.007063679863,
744,-0.006943809334,
743.5,-0.007033932023,
743,-0.006967449561,
742.5,-0.006946458947,
742,-0.006853769999,
741.5,-0.006969946437,
741,-0.007169615477,
740.5,-0.007020941935,
740,-0.007052219007,
739.5,-0.007138703018,
739,-0.00724701304,
738.5,-0.007095412351,
738,-0.007122965995,
737.5,-0.007115377579,
737,-0.007059554104,
736.5,-0.007101422176,
736,-0.007029958535,
735.5,-0.007037293632,
735,-0.006974735297,
734.5,-0.007017681375,
734,-0.007075751666,
733.5,-0.00708227139,
733,-0.00705053797,
732.5,-0.007031130139,
732,-0.007000717334,
731.5,-0.007071116474,
731,-0.007105802651,
730.5,-0.007036122028,
730,-0.006904830225,
729.5,-0.006951655727,
729,-0.007200270426,
728.5,-0.007141758688,
728,-0.007119095419,
727.5,-0.007067143451,
727,-0.007016509771,
726.5,-0.006942637265,
726,-0.006950483657,
725.5,-0.006802143063,
725,-0.006824873853,
724.5,-0.006974786054,
724,-0.006920371205,
723.5,-0.007111150306,
723,-0.00705283042,
722.5,-0.007032149006,
722,-0.007040044758,
721.5,-0.007054969668,
721,-0.00707834959,
720.5,-0.006906409748,
720,-0.00684617646,
719.5,-0.006886434741,
719,-0.006922613364,
718.5,-0.006921747234,
718,-0.006908651907,
717.5,-0.007007595152,
717,-0.007122457027,
716.5,-0.00706459675,
716,-0.006974225864,
715.5,-0.006961387116,
715,-0.006952470634,
714.5,-0.007016611751,
714,-0.00692307204,
713.5,-0.007043967023,
713,-0.007088637911,
712.5,-0.007004996762,
712,-0.006920116488,
711.5,-0.0070097344,
711,-0.006937083788,
710.5,-0.007063527126,
710,-0.006976467557,
709.5,-0.006998374127,
709,-0.006937389262,
708.5,-0.006908142474,
708,-0.007005200721,
707.5,-0.006843424868,
707,-0.006904677488,
706.5,-0.006893619895,
706,-0.006907581817,
705.5,-0.006783794612,
705,-0.006727316417,
704.5,-0.006818452384,
704,-0.00687843468,
703.5,-0.00684541231,
703,-0.006928982213,
702.5,-0.006819573697,
702,-0.006869210862,
701.5,-0.006789503153,
701,-0.006804946344,
700.5,-0.006902537309,
700,-0.006876192521,
699.5,-0.006795058493,
699,-0.006762743462,
698.5,-0.006734351162,
698,-0.006854432635,
697.5,-0.006895556115,
697,-0.006802958436,
696.5,-0.006729814224,
696,-0.006870077457,
695.5,-0.006892295089,
695,-0.006798983086,
694.5,-0.00676131621,
694,-0.006799594499,
693.5,-0.006906053051,
693,-0.007017885335,
692.5,-0.006832569372,
692,-0.006831907202,
691.5,-0.006841844879,
691,-0.006809482351,
690.5,-0.006812183652,
690,-0.006774110254,
689.5,-0.006763915997,
689,-0.006714827381,
688.5,-0.006711309776,
688,-0.006842812989,
687.5,-0.006862382405,
687,-0.006808106322,
686.5,-0.006934740115,
686,-0.006854126696,
685.5,-0.006808463018,
685,-0.006828797981,
684.5,-0.006727724336,
684,-0.006672666874,
683.5,-0.006659308914,
683,-0.006610412616,
682.5,-0.00659909239,
682,-0.006668332964,
681.5,-0.006597562693,
681,-0.006595931016,
680.5,-0.00676121423,
680,-0.006720026955,
679.5,-0.006660787389,
679,-0.006655332167,
678.5,-0.00658272393,
678,-0.006528770085,
677.5,-0.006629788317,
677,-0.006703713909,
676.5,-0.006804844365,
676,-0.006611177232,
675.5,-0.006634376943,
675,-0.006639730651,
674.5,-0.006509899627,
674,-0.006534737069,
673.5,-0.006566355005,
673,-0.006636365782,
672.5,-0.00655034231,
672,-0.006539020687,
671.5,-0.006514183711,
671,-0.006609953474,
670.5,-0.006514490116,
670,-0.006531779189,
669.5,-0.006612962112,
669,-0.00648990646,
668.5,-0.00644507166,
668,-0.006448387634,
667.5,-0.006345286034,
667,-0.006312682293,
666.5,-0.006458078977,
666,-0.006529891863,
665.5,-0.006442623213,
665,-0.006481593009,
664.5,-0.006371357013,
664,-0.006362888031,
663.5,-0.006430278998,
663,-0.006429717876,
662.5,-0.006358959712,
662,-0.006376765203,
661.5,-0.006325642578,
661,-0.006312121172,
660.5,-0.006327989511,
660,-0.006362786051,
659.5,-0.006310386583,
659,-0.006367887836,
658.5,-0.006260889117,
658,-0.006179180928,
657.5,-0.006249509286,
657,-0.00617091218,
656.5,-0.006172954105,
656,-0.006100162864,
655.5,-0.006072952412,
655,-0.006082244217,
654.5,-0.006160448771,
654,-0.006146105472,
653.5,-0.006097865757,
653,-0.006021386012,
652.5,-0.006096742582,
652,-0.006064171437,
651.5,-0.006034405902,
651,-0.006067694165,
650.5,-0.006006629672,
650,-0.005972264335,
649.5,-0.00594632281,
649,-0.005934066139,
648.5,-0.006016484462,
648,-0.006053296849,
647.5,-0.006040635053,
647,-0.005955668166,
646.5,-0.005920277443,
646,-0.005878856871,
645.5,-0.005954799708,
645,-0.005928499624,
644.5,-0.00584540097,
644,-0.005747725256,
643.5,-0.005761264358,
643,-0.005780984182,
642.5,-0.005784866866,
642,-0.00584197836,
641.5,-0.005703886505,
641,-0.005664898548,
640.5,-0.005523939151,
640,-0.005427775905,
639.5,-0.005451345816,
639,-0.005460139364,
638.5,-0.005480588879,
638,-0.005580522586,
637.5,-0.005385746248,
637,-0.00539116608,
636.5,-0.005446130875,
636,-0.005444392562,
635.5,-0.005416681059,
635,-0.005516526755,
634.5,-0.005433400162,
634,-0.005269861314,
633.5,-0.005266127642,
633,-0.005264644045,
632.5,-0.00532315392,
632,-0.005475834478,
631.5,-0.005288018379,
631,-0.005196969956,
630.5,-0.005162387155,
630,-0.005208326504,
629.5,-0.005188682582,
629,-0.005075713154,
628.5,-0.005093417596,
628,-0.005019114818,
627.5,-0.004967678804,
627,-0.00481912028,
626.5,-0.004921816289,
626,-0.004855317529,
625.5,-0.004738676362,
625,-0.004724798258,
624.5,-0.004664364271,
624,-0.004559301771,
623.5,-0.004556688946,
623,-0.004517084919,
622.5,-0.00448337011,
622,-0.004519134294,
621.5,-0.004430948291,
621,-0.004354379606,
620.5,-0.004342539236,
620,-0.004267492797,
619.5,-0.004168692511,
619,-0.00395481335,
618.5,-0.003866101848,
618,-0.00383095094,
617.5,-0.003826383734,
617,-0.003836288117,
616.5,-0.003761256579,
616,-0.003623425728,
615.5,-0.003530538641,
615,-0.003484986257,
614.5,-0.003363610012,
614,-0.003209002549,
613.5,-0.003182124346,
613,-0.003045908874,
612.5,-0.002896073973,
612,-0.002721544355,
611.5,-0.002669886919,
611,-0.002378401579,
610.5,-0.002334272955,
610,-0.002111090347,
609.5,-0.001953150146,
609,-0.001739878324,
608.5,-0.001611049986,
608,-0.001377586741,
607.5,-0.00105238636,
607,-0.0007446699892,
606.5,-0.0004367872025,
606,-9.131609841E-5,
605.5,9.933581896E-5,
605,0.0004064963432,
604.5,0.0008276895969,
604,0.001277823234,
603.5,0.001674369909,
603,0.002216671593,
602.5,0.002722556237,
602,0.00332587352,
601.5,0.004060708452,
601,0.004855054896,
600.5,0.005582545884,
600,0.006583237089,
599.5,0.007464266382,
599,0.008596236818,
598.5,0.009890321642,
598,0.01148650236,
597.5,0.0131891584,
597,0.01511524338,
596.5,0.01745571196,
596,0.02001458034,
595.5,0.02312880196,
595,0.02665737458,
594.5,0.03106394596,
594,0.03622885048,
593.5,0.04244146124,
593,0.0502730608,
592.5,0.05959943309,
592,0.07095718384,
591.5,0.08585638553,
591,0.1034408733,
590.5,0.1240927428,
590,0.1484407634,
589.5,0.1752476096,
589,0.2026819885,
588.5,0.2280236483,
588,0.247928828,
587.5,0.2598817945,
587,0.2623916566,
586.5,0.2562455833,
586,0.2434954941,
585.5,0.2266760617,
585,0.2069472224,
584.5,0.1872186512,
584,0.168274343,
583.5,0.150391683,
583,0.1344277263,
582.5,0.1201087981,
582,0.1074365303,
581.5,0.09651202708,
581,0.08674011379,
580.5,0.0783649683,
580,0.07097897679,
579.5,0.06447814405,
579,0.05877932906,
578.5,0.05361051857,
578,0.04901524261,
577.5,0.04506580532,
577,0.04138743132,
576.5,0.03839419782,
576,0.03550551832,
575.5,0.03303444386,
575,0.03080879524,
574.5,0.02867520787,
574,0.02673164196,
573.5,0.02501368895,
573,0.02344269678,
572.5,0.02195101231,
572,0.02049504407,
571.5,0.01939958148,
571,0.01817602478,
570.5,0.01706684381,
570,0.01610136405,
569.5,0.01465539075,
569,0.01434861124,
568.5,0.01355827786,
568,0.0127949724,
567.5,0.01198188588,
567,0.01151300315,
566.5,0.01073866058,
566,0.01037131995,
565.5,0.009708955884,
565,0.009211344644,
564.5,0.008812931366,
564,0.008533058688,
563.5,0.008055224083,
563,0.007509854157,
562.5,0.007256456185,
562,0.006988711189,
561.5,0.00661779847,
561,0.006222885568,
560.5,0.005859920289,
560,0.005708162207,
559.5,0.005377389956,
559,0.004955402575,
558.5,0.00474318862,
558,0.004668557551,
557.5,0.004273870029,
557,0.004031836521,
556.5,0.003865358653,
556,0.003727715695,
555.5,0.003627102822,
555,0.003326942911,
554.5,0.003111403668,
554,0.003098133253,
553.5,0.002800032031,
553,0.002478756243,
552.5,0.002517730929,
552,0.002350296592,
551.5,0.002161177807,
551,0.002088445704,
550.5,0.001994114835,
550,0.00190825446,
549.5,0.001779599814,
549,0.001707373303,
548.5,0.001600550022,
548,0.001714312122,
547.5,0.00155178539,
547,0.001510870992,
546.5,0.001516507822,
546,0.001503286068,
545.5,0.001464012545,
545,0.001157089719,
544.5,0.0009201848879,
544,0.001179022249,
543.5,0.0009840819985,
543,0.001044225879,
542.5,0.001129137003,
542,0.001110710553,
541.5,0.000934815791,
541,0.0008944523288,
540.5,0.0009731334285,
540,0.001194206998,
539.5,0.001056992682,
539,0.000877384562,
538.5,0.0008817162598,
538,0.0009003405576,
537.5,0.001038750866,
537,0.001116757398,
536.5,0.00109371217,
536,0.00111237145,
535.5,0.001174869249,
535,0.001136923092,
534.5,0.001171079697,
534,0.001302332385,
533.5,0.001305733575,
533,0.001232209965,
532.5,0.001416613697,
532,0.001415237202,
531.5,0.001529418398,
531,0.001526742708,
530.5,0.001606889535,
530,0.001758078695,
529.5,0.001649320126,
529,0.001563320053,
528.5,0.001769099035,
528,0.001786175882,
527.5,0.001839386066,
527,0.001896424685,
526.5,0.002119737677,
526,0.002295956947,
525.5,0.002215786837,
525,0.002233713865,
524.5,0.002421927406,
524,0.00257228082,
523.5,0.002671972383,
523,0.002746782266,
522.5,0.002912232419,
522,0.003069221042,
521.5,0.003056212561,
521,0.002907671966,
520.5,0.003119355766,
520,0.003247338813,
519.5,0.003224805929,
519,0.003108770354,
518.5,0.003274619579,
518,0.003465215676,
517.5,0.003318230622,
517,0.003343089949,
516.5,0.00333388173,
516,0.003232681891,
515.5,0.003221702529,
515,0.003134764964,
514.5,0.003114532446,
514,0.003074043896,
513.5,0.002966753673,
513,0.002678822493,
512.5,0.002798703266,
512,0.002809072612,
511.5,0.002685672604,
511,0.002508930862,
510.5,0.002284168499,
510,0.002104442567,
509.5,0.002126344945,
509,0.001951364568,
508.5,0.001904770499,
508,0.00188935292,
507.5,0.001584857469,
507,0.001456765924,
506.5,0.001389319426,
506,0.001285949606,
505.5,0.001126074465,
505,0.0008002508548,
504.5,0.0007844056236,
504,0.0006730905734,
503.5,0.0005356520414,
503,0.0004038016777,
502.5,0.0003046034544,
502,0.0002754104789,
501.5,2.57831889E-5,
501,-0.0001721593289,
500.5,-0.000248796423,
500,-0.0002484342258,
499.5,-0.0004370975075,
499,-0.0005398527137,
498.5,-0.0006047926145,
498,-0.0006056715501,
497.5,-0.0007190860342,
497,-0.0009710352751,
496.5,-0.000889410614,
496,-0.0008558264235,
495.5,-0.001025942503,
495,-0.001206627465,
494.5,-0.001256910502,
494,-0.001109555364,
493.5,-0.001308891107,
493,-0.001406021765,
492.5,-0.001353330328,
492,-0.001300787204,
491.5,-0.001408344018,
491,-0.001489716349,
490.5,-0.00155420485,
490,-0.001615228015,
489.5,-0.001604396151,
489,-0.001639315044,
488.5,-0.001675211126,
488,-0.001652054372,
487.5,-0.001674643834,
487,-0.001740858075,
486.5,-0.001698108739,
486,-0.001823302475,
485.5,-0.001932533807,
485,-0.001981083769,
484.5,-0.001977888402,
484,-0.001969487872,
483.5,-0.002022877568,
483,-0.001971549354,
482.5,-0.002062297426,
482,-0.002153541427,
481.5,-0.002272681333,
481,-0.002417222597,
480.5,-0.002384631662,
480,-0.002448678482,
479.5,-0.002608651528,
479,-0.002756167669,
478.5,-0.00280961534,
478,-0.002732605673,
477.5,-0.002995678457,
477,-0.003102147952,
476.5,-0.003098292742,
476,-0.003210030496,
475.5,-0.003206741298,
475,-0.003297026036,
474.5,-0.003309254535,
474,-0.003403935581,
473.5,-0.003340645926,
473,-0.003524992382,
472.5,-0.003468191717,
472,-0.003386316122,
471.5,-0.003565354273,
471,-0.003700637026,
470.5,-0.003638982074,
470,-0.003603350604,
469.5,-0.003669733647,
469,-0.003743035719,
468.5,-0.003810782917,
468,-0.003973384388,
467.5,-0.003979078494,
467,-0.003937062342,
466.5,-0.003855736461,
466,-0.003812168492,
465.5,-0.003801391227,
465,-0.003848347347,
464.5,-0.004083871376,
464,-0.004073408898,
463.5,-0.004160129,
463,-0.004302864894,
462.5,-0.0043651429,
462,-0.004157052375,
461.5,-0.004210994113,
461,-0.004313014448,
460.5,-0.004398507997,
460,-0.004341052845,
459.5,-0.004437866621,
459,-0.004578205757,
458.5,-0.004465384409,
458,-0.004526358563,
457.5,-0.004634912591,
457,-0.004737908486,
456.5,-0.004681266379,
456,-0.004603614565,
455.5,-0.00466620829,
455,-0.004701035563,
454.5,-0.004697450437,
454,-0.0049522724,
453.5,-0.004904616624,
453,-0.00507074967,
452.5,-0.004987025633,
452,-0.004909479991,
451.5,-0.005005348008,
451,-0.004816764966,
450.5,-0.00489294529,
450,-0.004864379298,
449.5,-0.005032369401,
449,-0.005045675207,
448.5,-0.005039943382,
448,-0.004967576358,
447.5,-0.004947461188,
447,-0.004896989092,
446.5,-0.00509694824,
446,-0.005119307898,
445.5,-0.00523032248,
445,-0.005224746652,
444.5,-0.005217790138,
444,-0.00519763492,
443.5,-0.00517686503,
443,-0.005119461566,
442.5,-0.005153587554,
442,-0.005118694156,
441.5,-0.005271702539,
441,-0.005177376792,
440.5,-0.005266894586,
440,-0.005286432803,
439.5,-0.005391626619,
439,-0.005432837643,
438.5,-0.005456560757,
438,-0.005360178184,
437.5,-0.005487950519,
437,-0.005678541958,
436.5,-0.005583231337,
436,-0.005464791786,
435.5,-0.005359053146,
435,-0.005326887127,
434.5,-0.005465405528,
434,-0.005617729388,
433.5,-0.00559605984,
433,-0.005693718325,
432.5,-0.005598002113,
432,-0.005293030292,
431.5,-0.00545702083,
431,-0.005539171863,
430.5,-0.005578631535,
430,-0.005759424996,
429.5,-0.005739959422,
429,-0.005726777483,
428.5,-0.005738375243,
428,-0.005677826703,
427.5,-0.005783487577,
427,-0.005813934375,
426.5,-0.005858068354,
426,-0.005708587356,
425.5,-0.005835491233,
425,-0.005929827224,
424.5,-0.005806935951,
424,-0.005617933813,
423.5,-0.005709507503,
423,-0.006005659699,
422.5,-0.005726777483,
422,-0.005657846574,
421.5,-0.005638325121,
421,-0.005731886718,
420.5,-0.005784100853,
420,-0.005684878211,
419.5,-0.005711500067,
419,-0.005892442539,
418.5,-0.005862921011,
418,-0.006025266368,
417.5,-0.005882380996,
417,-0.00573592307,
416.5,-0.005802134052,
416,-0.005703426898,
415.5,-0.005896069109,
415,-0.005963174626,
414.5,-0.005945199169,
414,-0.005724222399,
413.5,-0.005881001707,
413,-0.005974357948,
412.5,-0.005822158884,
412,-0.005837125704,
411.5,-0.005921962671,
411,-0.006098784506,
410.5,-0.005908224266,
410,-0.00586189935,
409.5,-0.006014033686,
409,-0.006126452703,
408.5,-0.006127677858,
408,-0.005942083895,
407.5,-0.006119510625,
407,-0.006109862588,
406.5,-0.006090565585,
406,-0.006070553325,
405.5,-0.006185612176,
405,-0.005994119681,
404.5,-0.006029351149,
404,-0.005890246481,
403.5,-0.006035120692,
403,-0.006149423309,
402.5,-0.006127065513,
402,-0.005959906615,
401.5,-0.006064988207,
401,-0.006046302151,
400.5,-0.006023938768,
400,-0.00611358881,
399.5,-0.00617274968,
399,-0.00603639707,
398.5,-0.006107871421,
398,-0.006148606539,
397.5,-0.006061312277,
397,-0.006025572773,
396.5,-0.00598952407,
396,-0.005946577992,
395.5,-0.006053552032,
395,-0.006132578477,
394.5,-0.006239098497,
394,-0.006090105977,
393.5,-0.006016076077,
393,-0.006248845719,
392.5,-0.006222410128,
392,-0.006251601502,
391.5,-0.00625155028,
391,-0.006095109042,
390.5,-0.006314264145,
390,-0.006458436139,
389.5,-0.006363704335,
389,-0.006349929143,
388.5,-0.006272677332,
388,-0.006038490683,
387.5,-0.006138244644,
387,-0.006326612085,
386.5,-0.006252111867,
386,-0.006095517427,
385.5,-0.006288955454,
385,-0.006362275686,
384.5,-0.006341561675,
384,-0.006385896821,
383.5,-0.006365490146,
383,-0.006269207224,
382.5,-0.006291710772,
382,-0.006138193421,
381.5,-0.006208017934,
381,-0.006358959712,
380.5,-0.006301048677,
380,-0.006342581939,
379.5,-0.006264410447,
379,-0.006274667103,
378.5,-0.006361918524,
378,-0.006433186587,
377.5,-0.006368143018,
377,-0.006399773061,
376.5,-0.006353551522,
376,-0.006106595509,
375.5,-0.006266808603,
375,-0.006437930278,
374.5,-0.006529433187,
374,-0.006378244609,
373.5,-0.00647281995,
373,-0.006469555665,
372.5,-0.006562071387,
372,-0.006118642632,
371.5,-0.006100520492,
371,-0.006275585853,
370.5,-0.006247263867,
370,-0.006223379634,
369.5,-0.00615151599,
369,-0.00620112801,
368.5,-0.006172290538,
368,-0.006293190643,
367.5,-0.006340694148,
367,-0.006363398395,
366.5,-0.006061925087,
366,-0.006190818269,
365.5,-0.006267880555,
365,-0.006103124004,
364.5,-0.006312988698,
364,-0.006286046933,
363.5,-0.006388906855,
363,-0.006405945867,
362.5,-0.006339469925,
362,-0.00622792216,
361.5,-0.00623246422,
361,-0.006089952774,
360.5,-0.00611338485,
360,-0.0060096425,
359.5,-0.005923443474,
359,-0.005872931797,
358.5,-0.005939683877,
358,-0.0059576598,
357.5,-0.005727135111,
357,-0.005769234151,
356.5,-0.005845298525,
356,-0.005974970758,
355.5,-0.005917417351,
355,-0.006023734808,
354.5,-0.005748593714,
354,-0.005781801883,
353.5,-0.005572753493,
353,-0.005666584708,
352.5,-0.005478851032,
352,-0.005556704011,
351.5,-0.00561379455,
351,-0.005650640931,
350.5,-0.00564108463,
350,-0.005580266938,
349.5,-0.01572875492,
349,-0.00730113266,
348.5,-0.006989509799,
348,-0.00695562968,
347.5,-0.007006423082,
347,-0.007038873155,
346.5,-0.007057822309,
346,-0.006834811997,
345.5,-0.006720740348,
345,-0.006743118633,
344.5,-0.006884651259,
344,-0.006708506029,
343.5,-0.006838634145,
343,-0.006822325755,
342.5,-0.006730884779,
342,-0.006677408237,
341.5,-0.00666027749,
341,-0.006586956326,
340.5,-0.006452518981,
340,-0.006602866109,
339.5,-0.007366036531,
339,-0.006453845184,
338.5,-0.006532085128,
338,-0.006588333286,
337.5,-0.006191634573,
337,-0.006000962108,
336.5,-0.006159274839,
336,-0.006125176791,
335.5,-0.006029044744,
335,-0.006095772609,
334.5,-0.006055389997,
334,-0.005801265594,
333.5,-0.005623146892,
333,-0.005529459566,
332.5,-0.005446284544,
332,-0.005147038493,
331.5,-0.005421691574,
331,-0.005330211017,
330.5,-0.005337933078,
330,-0.004999411292,
329.5,-0.004953245167,
329,-0.004921560641,
328.5,-0.005026023835,
328,-0.0049237106,
327.5,-0.004934869241,
327,-0.004760030657,
326.5,-0.004732684698,
326,-0.0045302012,
325.5,-0.004362990148,
325,-0.004385490436,
324.5,-0.004359043669,
324,-0.004533224273,
323.5,-0.004196996801,
323,-0.003927365411,
322.5,-0.004091410432,
322,-0.004046584014,
321.5,-0.003718859749,
321,-0.003570129629,
320.5,-0.003464545123,
320,-0.003413798055,
319.5,-0.003472557524,
319,-0.003507429268,
318.5,-0.003454375779,
318,-0.00339289126,
317.5,-0.003014701884,
317,-0.002964879153,
316.5,-0.002807866316,
316,-0.002750868909,
315.5,-0.002706881147,
315,-0.00274124858,
314.5,-0.002719537821,
314,-0.002244405914,
313.5,-0.002256355016,
313,-0.002292303136,
312.5,-0.002201242605,
312,-0.002048384864,
311.5,-0.001995874336,
311,-0.001718787826,
310.5,-0.001819074852,
310,-0.00170089351,
309.5,-0.001371961436,
309,-0.00137990911,
308.5,-0.001366903773,
308,-0.001386514748,
307.5,-0.001153188874,
307,-0.001039164606,
306.5,-0.001063593547,
306,-0.001071185339,
305.5,-0.0008341761422,
305,-0.0004485791724,
304.5,-0.0004035817692,
304,-0.000234360079,
303.5,-4.736873962E-5,
303,0.0001947320125,
302.5,0.0003646015539,
302,0.0007243235596,
301.5,0.001062960946,
301,0.001694223611,
300.5,0.001969748875,
300,0.002373122377,
299.5,0.00295914337,
299,0.003449168522,
298.5,0.003901323769,
298,0.004398192745,
297.5,0.004675491713,
297,0.005078113638,
296.5,0.005083770957,
296,0.004982162733,
295.5,0.005018220283,
295,0.005076044705,
294.5,0.004634308163,
294,0.004479420371,
293.5,0.004386582412,
293,0.00430837879,
292.5,0.004091907758,
292,0.003975953907,
291.5,0.00410011271,
291,0.004278497305,
290.5,0.004257113207,
290,0.004409410991,
289.5,0.004427768756,
289,0.004383575637,
288.5,0.004483971279,
288,0.004560297355,
287.5,0.004571728874,
287,0.004639619496,
286.5,0.004354316276,
286,0.004292980302,
285.5,0.00399677502,
285,0.003762233304,
284.5,0.003493397264,
284,0.003132991958,
283.5,0.002796827583,
283,0.002557568718,
282.5,0.002312481869,
282,0.001936257351,
281.5,0.001823840896,
281,0.001858389471,
280.5,0.001577037387,
280,0.001369219972,
279.5,0.001265075989,
279,0.001255392446,
278.5,0.0009932924295,
278,0.0008185604238,
277.5,0.0005988703924,
277,0.0005174839171,
276.5,0.0002362219238,
276,5.265525033E-5,
275.5,-7.081823424E-5,
275,-0.0001944636169,
274.5,-0.0003122795606,
274,-0.0004963644315,
273.5,-0.0005722204805,
273,-0.0006270747399,
272.5,-0.0006591257988,
272,-0.0007302501472,
271.5,-0.000774128479,
271,-0.0009000537102,
270.5,-0.0009317230433,
270,-0.0008062720299,
269.5,-0.0009694339242,
269,-0.001077279332,
268.5,-0.001011893502,
268,-0.001021035714,
267.5,-0.0009468594799,
267,-0.001039216295,
266.5,-0.0009189625853,
266,-0.0008963338332,
265.5,-0.0008737555472,
265,-0.001025322708,
264.5,-0.0008383099339,
264,-0.0008327293326,
263.5,-0.0006688440917,
263,-0.0008064270951,
262.5,-0.0007679268601,
262,-0.0006848166813,
261.5,-0.0007053372683,
261,-0.0006428937777,
260.5,-0.0004979675286,
260,-0.0004601639521,
259.5,-0.000273890706,
259,-0.0002509178594,
258.5,-0.0002971210342,
258,-6.31054063E-5,
257.5,2.570552715E-5,
257,5.431215686E-5,
256.5,8.167790656E-5,
256,0.0002524874581,
255.5,0.0003202498192,
255,0.000407791842,
254.5,0.0005342006334,
254,0.0004657570389,
253.5,0.000651650189,
253,0.0007922115037,
252.5,0.0009187062387,
252,0.0009629375418,
251.5,0.0008883825503,
251,0.0008692918927,
250.5,0.001037090202,
250,0.001133964397,
249.5,0.001316508744,
249,0.001481155283,
248.5,0.001563164173,
248,0.001607980812,
247.5,0.001764290617,
247,0.00181768008,
246.5,0.0019462161,
246,0.002000226174,
245.5,0.002276127692,
245,0.002465765225,
244.5,0.002573999576,
244,0.00255670934,
243.5,0.003066640114,
243,0.003408701159,
242.5,0.003574534319,
242,0.003680539085,
241.5,0.003897745395,
241,0.004082239233,
240.5,0.004459360614,
240,0.00487442594,
239.5,0.005205522757,
239,0.00561870588,
238.5,0.006033543032,
238,0.006450221408,
237.5,0.006918033119,
237,0.00744567439,
236.5,0.007733675186,
236,0.008211365901,
235.5,0.008789209649,
235,0.009353011847,
234.5,0.01001480594,
234,0.01069390029,
233.5,0.01138418261,
233,0.01206129789,
232.5,0.01267464645,
232,0.0134654548,
231.5,0.01431016531,
231,0.01531757135,
230.5,0.01627891511,
230,0.01735563949,
229.5,0.01856286265,
229,0.01962365955,
228.5,0.02082534321,
228,0.0219521299,
227.5,0.02352876961,
227,0.02507596649,
226.5,0.02662412636,
226,0.0281666927,
225.5,0.02982781269,
225,0.03157906607,
224.5,0.03342471272,
224,0.03534478322,
223.5,0.03747989237,
223,0.03944125772,
222.5,0.04174404964,
222,0.04414340854,
221.5,0.04677018896,
221,0.0493830815,
220.5,0.05184077471,
220,0.05414680392,
219.5,0.05686790869,
219,0.05946788192,
218.5,0.06174125522,
218,0.06389228255,
217.5,0.06579171121,
217,0.0675823614,
216.5,0.06921114773,
216,0.07066006958,
215.5,0.0717754662,
215,0.07309897989,
214.5,0.07394580543,
214,0.07472150773,
213.5,0.07559742033,
213,0.07635755837,
212.5,0.07692532241,
212,0.0776469931,
211.5,0.07836211473,
211,0.07905851305,
210.5,0.07976379991,
210,0.0802776143,
209.5,0.08102469146,
209,0.08177939802,
208.5,0.0823501125,
208,0.08340419084,
207.5,0.08403839171,
207,0.08492091298,
206.5,0.08592011034,
206,0.08676897734,
205.5,0.0878175348,
205,0.08903742582,
204.5,0.09036374837,
204,0.09180100262,
203.5,0.09331987798,
203,0.09497781098,
202.5,0.09694951773,
202,0.09922906756,
201.5,0.1015131548,
201,0.1038422957,
200.5,0.1062150002,
200,0.1095540896,

